# Path distance (Angstrom), Energy (eV)
0.000000000000000000e+00 0.000000000000000000e+00
2.455985896964079859e-02 3.054402251671599041e-04
4.911971793928159719e-02 1.246758521586982093e-03
7.367957690892239231e-02 2.805402364731800994e-03
9.823943587856319437e-02 4.962819230073953203e-03
1.227992948482039964e-01 7.700456593085774556e-03
1.473591538178447846e-01 1.099976192923959699e-02
1.719190127874855867e-01 1.484218271400775807e-02
1.964788717571263887e-01 1.920916642286259191e-02
2.210387307267671908e-01 2.408216053127643086e-02
2.455985896964079929e-01 2.944261251472161597e-02
2.701584486660487672e-01 3.527196984867047441e-02
2.947183076356895692e-01 4.155168000859534722e-02
3.192781666053303713e-01 4.826319046996856849e-02
3.438380255749711734e-01 5.538794870826247579e-02
3.683978845446119754e-01 6.290740219894939977e-02
3.929577435142527775e-01 7.080299841750167800e-02
4.175176024838935795e-01 7.905618483939164109e-02
4.420774614535343816e-01 8.764840894009164052e-02
4.666373204231751837e-01 9.656111819507398608e-02
4.911971793928159857e-01 1.057757600798110154e-01
5.157266776025528632e-01 1.151884191831007986e-01
5.402561758122897961e-01 1.247141479720614843e-01
5.647856740220267291e-01 1.343281355371960528e-01
5.893151722317635510e-01 1.440055709690076235e-01
6.138446704415004840e-01 1.537216433579992880e-01
6.383741686512374169e-01 1.634515417946741656e-01
6.629036668609742389e-01 1.731704553695352367e-01
6.874331650707111718e-01 1.828535731730856206e-01
7.119626632804481048e-01 1.924760842958284091e-01
7.364921614901850377e-01 2.020131778282666657e-01
7.610216596999219707e-01 2.114400428609033988e-01
7.855511579096587926e-01 2.207318684842417555e-01
8.100806561193957256e-01 2.298638437887847441e-01
8.346101543291326585e-01 2.388111578650355671e-01
8.591396525388694805e-01 2.475489998034971773e-01
8.836691507486064134e-01 2.560525586946726939e-01
9.081986489583433464e-01 2.642970236290652086e-01
9.327281471680801683e-01 2.722575836971777297e-01
9.572576453778171013e-01 2.799094279895134041e-01
9.817871435875540342e-01 2.872277455965751569e-01
1.006341571277676428e+00 2.942601984015669192e-01
1.030895998967799043e+00 3.010488043916252909e-01
1.055450426657921437e+00 3.075820661038513038e-01
1.080004854348044052e+00 3.138484860753462113e-01
1.104559282038166446e+00 3.198365668432110454e-01
1.129113709728288839e+00 3.255348109445470595e-01
1.153668137418411455e+00 3.309317209164553963e-01
1.178222565108533848e+00 3.360157992960370876e-01
1.202776992798656464e+00 3.407755486203933870e-01
1.227331420488778857e+00 3.451994714266254372e-01
1.251885848178901472e+00 3.492760702518344917e-01
1.276440275869023866e+00 3.529938476331213604e-01
1.300994703559146259e+00 3.563413061075875188e-01
1.325549131249268875e+00 3.593069482123341096e-01
1.350103558939391268e+00 3.618792764844620535e-01
1.374657986629513662e+00 3.640467934610727152e-01
1.399212414319636277e+00 3.657980016792670153e-01
1.423766842009758671e+00 3.671214036761463184e-01
1.448321269699881286e+00 3.680055019888116563e-01
1.472875697390003680e+00 3.684387991543647267e-01
1.497673287879863091e+00 3.683428418386962555e-01
1.522470878369722280e+00 3.676586734659750277e-01
1.547268468859581692e+00 3.664101042587284418e-01
1.572066059349440881e+00 3.646209444394838961e-01
1.596863649839300292e+00 3.623150042307705654e-01
1.621661240329159703e+00 3.595160938551154040e-01
1.646458830819018893e+00 3.562480235350469204e-01
1.671256421308878304e+00 3.525346034930925132e-01
1.696054011798737493e+00 3.483996439517815791e-01
1.720851602288596904e+00 3.438669551336404062e-01
1.745649192778456094e+00 3.389603472611986135e-01
1.770446783268315505e+00 3.337036305569822670e-01
1.795244373758174916e+00 3.281206152435209855e-01
1.820041964248034105e+00 3.222351115433423896e-01
1.844839554737893517e+00 3.160709296789738776e-01
1.869637145227752928e+00 3.096518798729435140e-01
1.894434735717612117e+00 3.030017723477798075e-01
1.919232326207471528e+00 2.961444173260101564e-01
1.944029916697330718e+00 2.891036250301632915e-01
1.968827507187190129e+00 2.819032056827653898e-01
1.993795666869420558e+00 2.744775599661112286e-01
2.018763826551650986e+00 2.668523875962256486e-01
2.043731986233881859e+00 2.590383807889490297e-01
2.068700145916112287e+00 2.510462317601207527e-01
2.093668305598342716e+00 2.428866327255807533e-01
2.118636465280573145e+00 2.345702759011694116e-01
2.143604624962803573e+00 2.261078535027259973e-01
2.168572784645034446e+00 2.175100577460900020e-01
2.193540944327264874e+00 2.087875808471016947e-01
2.218509104009495303e+00 1.999511150216001232e-01
2.243477263691725732e+00 1.910113524854261113e-01
2.268445423373956160e+00 1.819789854544188179e-01
2.293413583056187033e+00 1.728647061444172905e-01
2.318381742738417461e+00 1.636792067712639076e-01
2.343349902420647890e+00 1.544331795507951632e-01
2.368318062102878319e+00 1.451373166988527696e-01
2.393286221785109191e+00 1.358023104312762186e-01
2.418254381467339620e+00 1.264388529639044467e-01
2.443222541149570048e+00 1.170576365125794993e-01
2.468190700831800477e+00 1.076693532931389807e-01
2.492953547016174998e+00 9.848742045432890002e-02
2.517716393200549074e+00 8.957788811378120108e-02
2.542479239384923595e+00 8.096199710422546936e-02
2.567242085569297672e+00 7.266098825839018005e-02
2.592004931753672192e+00 6.469610240900158793e-02
2.616767777938046713e+00 5.708858038879038865e-02
2.641530624122420789e+00 4.985966303048505743e-02
2.666293470306795310e+00 4.303059116681184904e-02
2.691056316491169387e+00 3.662260563050234730e-02
2.715819162675543907e+00 3.065694725428214085e-02
2.740582008859918428e+00 2.515485687088170330e-02
2.765344855044292505e+00 2.013757531302795556e-02
2.790107701228667025e+00 1.562634341345137123e-02
2.814870547413041102e+00 1.164240200487842714e-02
2.839633393597415623e+00 8.206991920038264610e-03
2.864396239781790143e+00 5.341353991660247047e-03
2.889159085966164220e+00 3.066729052471295347e-03
2.913921932150538741e+00 1.404357935200550855e-03
2.938684778334912817e+00 3.754814725771549178e-04
2.963447624519287338e+00 1.340497328250478404e-06
